{'Count': '39629', 'RetMax': '999', 'RetStart': '0', 'IdList': ['2099877938', '2098453962', '2096759457', '2096308702', '2095913482', '2095856090', '2095540242', '2095053525', '2094445225', '2093407927', '2091383202', '2089662954', '2087859571', '2087640120', '2087468323', '2086196231', '2085419368', '2083013081', '2082669842', '2082259135', '2081633409', '2078926504', '2078241614', '2077442272', '2076174982', '2075122524', '2074427740', '2070000664', '2068668140', '2068667838', '2068667656', '2068667544', '2068667451', '2068667380', '2068666762', '2068666655', '2068666583', '2068666410', '2068665833', '2068665782', '2068665718', '2068665132', '2068664736', '2068664674', '2068664607', '2068664488', '2068664417', '2068664173', '2068664117', '2068663995', '2068663932', '2068663864', '2068663814', '2068663621', '2068663530', '2068663460', '2068663338', '2068663099', '2068662952', '2068662899', '2068662842', '2068662585', '2068662523', '2068662461', '2068662239', '2068662080', '2068661787', '2068661555', '2068661487', '2068661033', '2068660793', '2068659816', '2068659660', '2068659260', '2068659133', '2068658471', '2068658289', '2068658218', '2068657887', '2068657837', '2068657784', '2068657508', '2068657060', '2068656999', '2068656728', '2068656566', '2068656383', '2068656314', '2068656182', '2068656132', '2068655888', '2068655717', '2068655375', '2068655317', '2068655254', '2068654757', '2068654581', '2068654304', '2068654128', '2068653970', '2068653749', '2068653689', '2068653492', '2068653255', '2068653188', '2068653107', '2068653041', '2068652869', '2068652808', '2068652362', '2068652167', '2068651885', '2068651727', '2068651668', '2068651408', '2068651343', '2068650960', '2068650889', '2068650408', '2068650265', '2068650204', '2068650106', '2068650044', '2068649927', '2068649855', '2068649803', '2068649732', '2068649336', '2068649279', '2068649214', '2068649105', '2068648788', '2068648661', '2068648606', '2068648542', '2068648139', '2068647930', '2068647535', '2068647479', '2068647420', '2068647243', '2068647175', '2068647112', '2068646773', '2068646706', '2068646570', '2068646223', '2068645718', '2068645235', '2068644732', '2068644602', '2068644369', '2068644302', '2068643976', '2068643914', '2068643732', '2068643667', '2068643514', '2068643451', '2068643394', '2068643123', '2068642251', '2068641963', '2068641897', '2068641823', '2068641665', '2068641597', '2068641431', '2068641305', '2068641120', '2068640544', '2068640484', '2068640237', '2068640080', '2068640005', '2068639732', '2068639517', '2068639349', '2068638812', '2068638751', '2068638698', '2068638307', '2068638245', '2068638172', '2068637870', '2068637815', '2068637743', '2068637686', '2068637401', '2068637340', '2068637291', '2068636786', '2068636718', '2068636468', '2068635829', '2068635596', '2068635420', '2068635362', '2068635024', '2068634963', '2068634649', '2068634490', '2068634390', '2068634052', '2068633690', '2068633113', '2068633036', '2068632794', '2068632737', '2068632521', '2068632452', '2068632053', '2068631999', '2068631893', '2068631680', '2068631625', '2068631571', '2068631506', '2068631348', '2068631290', '2068631067', '2068630505', '2068630388', '2068630310', '2068630258', '2068630197', '2068629846', '2068629658', '2068629493', '2068629370', '2068629315', '2068629017', '2068628664', '2068628499', '2068628446', '2068628115', '2068627622', '2068627299', '2068626590', '2068626519', '2068626449', '2068626230', '2068626171', '2068625867', '2068625701', '2068625644', '2068625569', '2068625497', '2068625153', '2068624947', '2068624772', '2068624706', '2068624558', '2068624402', '2068624094', '2068623963', '2068623923', '2068623728', '2068623571', '2068623449', '2068623280', '2068623231', '2068623141', '2068623095', '2068623005', '2068622966', '2068622915', '2068622833', '2068622793', '2068622593', '2068622347', '2068622290', '2068622225', '2068622170', '2068622026', '2068621854', '2068621643', '2068621385', '2068621319', '2068620945', '2068620903', '2068620688', '2068620395', '2068620077', '2068620020', '2068619935', '2068619780', '2068619705', '2068619572', '2068619313', '2068619255', '2068618983', '2068618764', '2068618702', '2068618634', '2068618568', '2068618487', '2068618329', '2068618279', '2068617771', '2068617649', '2068617579', '2068617519', '2068617465', '2068617405', '2068617211', '2068617063', '2068616848', '2068616699', '2068616560', '2068616277', '2068615966', '2068615842', '2068615591', '2068615462', '2068615321', '2068615032', '2068614911', '2068614859', '2068614334', '2068614279', '2068614219', '2068614163', '2068614119', '2068613915', '2068613537', '2068613079', '2068612889', '2068612825', '2068612746', '2068612679', '2068612618', '2068612496', '2068612271', '2068612149', '2068612007', '2068611827', '2068611702', '2068611482', '2068611302', '2068611104', '2068611047', '2068610848', '2068610712', '2068610252', '2068610178', '2068610025', '2068609608', '2068609472', '2068609350', '2068609197', '2068608831', '2068608419', '2068608037', '2068607979', '2068607863', '2068607804', '2068607737', '2068607615', '2068607422', '2068607357', '2068607208', '2068606762', '2068606705', '2068606580', '2068606523', '2068606382', '2068606247', '2068605862', '2068605741', '2068605688', '2068605560', '2068605298', '2068604893', '2068604833', '2068604780', '2068604540', '2068604430', '2068604365', '2068604294', '2068604173', '2068603769', '2068603249', '2068603193', '2068602878', '2068602837', '2068602722', '2068602661', '2068602598', '2068602349', '2068602290', '2068602220', '2068602056', '2068601798', '2068601728', '2068601543', '2068601302', '2068601235', '2068601001', '2068600807', '2068600759', '2068600573', '2068600525', '2068600389', '2068600195', '2068600004', '2068599939', '2068599503', '2068599305', '2068598745', '2068598541', '2068598254', '2068598112', '2068597907', '2068597845', '2068597738', '2068597484', '2068597417', '2068596808', '2068596566', '2068596345', '2068596192', '2068596063', '2068595629', '2068595258', '2068595187', '2068594964', '2068594828', '2068594652', '2068594532', '2068594265', '2068594202', '2068594028', '2068593956', '2068593895', '2068593845', '2068593725', '2068593558', '2068593079', '2068593014', '2068592883', '2068592820', '2068592688', '2068592560', '2068592182', '2068592124', '2068591526', '2068591471', '2068591328', '2068591263', '2068591140', '2068591012', '2068590886', '2068590420', '2068590058', '2068589989', '2068589906', '2068589779', '2068589408', '2068589343', '2068588958', '2068588887', '2068588760', '2068588718', '2068588661', '2068588523', '2068588407', '2068587892', '2068587499', '2068587242', '2068587181', '2068587123', '2068586899', '2068586833', '2068586576', '2068586303', '2068586244', '2068586181', '2068586041', '2068585804', '2068585637', '2068585116', '2068585040', '2068584568', '2068584496', '2068584429', '2068584308', '2068584131', '2068583656', '2068583019', '2068582941', '2068582755', '2068582626', '2068582358', '2068582205', '2068582145', '2068581995', '2068581797', '2068581729', '2068581459', '2068581259', '2068581181', '2068580650', '2068580293', '2068579668', '2068579515', '2068578925', '2068578861', '2068578785', '2068578708', '2068578634', '2068578573', '2068578447', '2068578016', '2068577956', '2068577894', '2068577725', '2068577599', '2068577247', '2068577164', '2068576862', '2068576709', '2068576559', '2068576295', '2068575761', '2068575706', '2068575470', '2068575333', '2068575174', '2068575110', '2068575043', '2068574972', '2068574755', '2068574691', '2068574452', '2068574390', '2068574020', '2068573946', '2068573399', '2068573183', '2068572786', '2068572710', '2068572505', '2068572311', '2068572236', '2068572169', '2068572104', '2068572016', '2068571942', '2068571112', '2068571037', '2068570824', '2068570431', '2068570292', '2068570143', '2068569851', '2068569679', '2068569452', '2068569034', '2068568731', '2068568560', '2068568408', '2068568150', '2068567875', '2068567675', '2068567453', '2068567302', '2068567212', '2068566884', '2068566707', '2068566537', '2068566411', '2068566332', '2068565670', '2068565532', '2068565387', '2068565148', '2068564993', '2068564829', '2068564750', '2068564674', '2068564604', '2068564530', '2068564182', '2068564001', '2068563811', '2068563722', '2068563642', '2068563564', '2068563409', '2068563260', '2068563195', '2068562471', '2068562036', '2068561978', '2068561771', '2068561705', '2068561620', '2068561553', '2068561249', '2068560524', '2068560445', '2068560285', '2068560222', '2068560059', '2068559977', '2068559904', '2068559473', '2068559180', '2068559014', '2068558794', '2068558640', '2068557649', '2068557416', '2068557321', '2068557155', '2068557091', '2068556494', '2068555868', '2068555800', '2068555380', '2068554954', '2068554832', '2068554766', '2068554403', '2068554272', '2068554126', '2068554061', '2068553533', '2068553329', '2068553118', '2068552682', '2068552601', '2068552521', '2068552458', '2068552217', '2068552134', '2068552049', '2068551973', '2068551825', '2068551662', '2068551579', '2068551381', '2068551316', '2068551233', '2068551152', '2068551025', '2068550947', '2068550626', '2068550453', '2068550010', '2068549848', '2068549629', '2068549434', '2068549299', '2068549179', '2068548958', '2068548693', '2068548522', '2068548366', '2068548274', '2068548116', '2068547967', '2068547799', '2068547729', '2068547647', '2068547570', '2068547501', '2068547429', '2068547350', '2068547015', '2068546226', '2068545773', '2068545489', '2068545421', '2068545362', '2068545244', '2068543980', '2068543909', '2068543438', '2068542880', '2068542704', '2068542566', '2068542243', '2068541476', '2068541400', '2068541334', '2068541115', '2068540706', '2068540613', '2068540022', '2068539955', '2068539886', '2068539748', '2068539655', '2068539509', '2068539020', '2068538754', '2068538682', '2068538568', '2068538399', '2068537849', '2068536962', '2068535726', '2068535636', '2068535473', '2068535395', '2068535315', '2068534783', '2068534377', '2068533875', '2068533786', '2068533488', '2068532722', '2068532382', '2068532150', '2068531820', '2068531597', '2068531487', '2068531139', '2068530896', '2068530118', '2068529888', '2068529640', '2068529286', '2068529191', '2068529118', '2068529026', '2068528939', '2068528747', '2068528653', '2068528335', '2068528243', '2068528157', '2068527828', '2068527273', '2068527191', '2068527118', '2068527040', '2068526938', '2068526767', '2068526418', '2068526336', '2068526250', '2068525816', '2068525561', '2068525485', '2068525160', '2068525010', '2068524754', '2068524604', '2068524062', '2068523618', '2068523458', '2068523378', '2068522998', '2068522925', '2068522847', '2068522781', '2068522414', '2068522252', '2068522189', '2068522120', '2068521880', '2068521497', '2068521413', '2068521341', '2068521171', '2068521105', '2068520591', '2068520527', '2068520278', '2068519720', '2068519419', '2068519030', '2068518790', '2068518723', '2068518100', '2068517836', '2068517672', '2068516234', '2068515974', '2068515139', '2068514875', '2068514324', '2068514252', '2068514084', '2068513367', '2068513302', '2068513027', '2068512800', '2068512436', '2068512343', '2068512188', '2068511720', '2068511478', '2068511341', '2068510886', '2068510727', '2068510650', '2068510507', '2068510051', '2068509946', '2068509762', '2068509608', '2068509544', '2068509450', '2068509385', '2068509310', '2068509221', '2068508929', '2068508691', '2068508084', '2068507826', '2068507746', '2068507666', '2068507590', '2068507116', '2068507041', '2068506853', '2068506781', '2068506337', '2068506252', '2068506172', '2068505669', '2068505101', '2068505016', '2068504889', '2068504814', '2068504739', '2068504635', '2068504494', '2068504432', '2068503921', '2068503845', '2068503780', '2068503708', '2068503616', '2068503152', '2068502909', '2068502749', '2068502675', '2068502608', '2068502461', '2068502296', '2068502220', '2068501852', '2068501732', '2068501656', '2068501454', '2068501387', '2068501314', '2068501256', '2068500827', '2068500479', '2068500412', '2068500260', '2068499787', '2068499722', '2068499062', '2068498991', '2068498777', '2068498705', '2068498506', '2068498443', '2068498383', '2068498312', '2068497960', '2068497899', '2068497834', '2068497772', '2068497690', '2068497617', '2068497374', '2068497033', '2068496581', '2068496254', '2068496040', '2068495540', '2068495471', '2068495407', '2068495353', '2068495134', '2068494968', '2068494625', '2068494359', '2068494284', '2068494211', '2068493732', '2068493514', '2068493363', '2068493138', '2068492797', '2068492545', '2068492325', '2068492184', '2068491552', '2068491471', '2068491235', '2068491025', '2068490894', '2068490809', '2068490668', '2068490597', '2068490449', '2068490059', '2068489822', '2068489418', '2068489046', '2068488830', '2068488694', '2068488570', '2068488421', '2068488287', '2068488149', '2068487859', '2068486834', '2068486013', '2068485937', '2068485869', '2068485287', '2068485205', '2068484651', '2068484132', '2068483844', '2068483771', '2068483698', '2068483566', '2068483370', '2068483212', '2068482636', '2068482392', '2068482100', '2068482028', '2068481678', '2068480920', '2068480846', '2068480616', '2068480355', '2068480234', '2068479475', '2068479168', '2068479022', '2068478239', '2068478084', '2068477751', '2068477468', '2068477381', '2068477015', '2068476814', '2068476485', '2068476336', '2068476255', '2068476196', '2068476002', '2068475922', '2068475325', '2068475102', '2068474500', '2068474348', '2068474011', '2068473605', '2068473544', '2068473462', '2068473309', '2068472897', '2068472341', '2068471763', '2068471535', '2068471370', '2068471305', '2068471235', '2068471079', '2068470580', '2068470436', '2068470373', '2068470030', '2068469872', '2068469813', '2068469608', '2068469457', '2068469394', '2068469040', '2068468874', '2068468740', '2068468671', '2068468593', '2068468373', '2068468304', '2068468077', '2068468014', '2068467781', '2068467721', '2068467512', '2068467239', '2068467167', '2068467106', '2068466909', '2068466762'], 'TranslationSet': [], 'TranslationStack': [{'Term': 'MYO18A[All Fields]', 'Field': 'All Fields', 'Count': '39629', 'Explode': 'N'}, 'GROUP'], 'QueryTranslation': 'MYO18A[All Fields]'}
