{'Count': '3510', 'RetMax': '999', 'RetStart': '0', 'IdList': ['132745248', '132698548', '132630288', '132585571', '132570453', '132556528', '132487588', '132464453', '132450528', '132393352', '132378153', '132364228', '132319120', '132311110', '132272237', '132231848', '132185843', '132151543', '132094988', '132050352', '132013652', '132001574', '131938688', '131894052', '131857352', '131830448', '131783748', '131737048', '131702053', '131688128', '131643020', '131635010', '131576588', '131553453', '131539528', '131492843', '131459117', '131400743', '131366443', '131332143', '131297126', '131270084', '131270083', '131237948', '131203817', '131145443', '131088888', '131068874', '131041673', '130992653', '130978728', '130943053', '130929128', '130894317', '130854685', '130831285', '130801017', '130753653', '130739728', '130682552', '130634088', '130599226', '130565643', '130532567', '130497852', '130490385', '130449820', '130441810', '130395152', '130386199', '130383562', '130334217', '130286853', '130272928', '130215671', '130201417', '130143043', '130120617', '130054517', '130010274', '129988385', '129936948', '129901953', '129888028', '129840648', '129805653', '129791728', '129734552', '129720217', '129673717', '129604852', '129590517', '129529437', '129500753', '129486828', '129458885', '129406252', '129381267', '129368917', '129288288', '129231888', '129209617', '129141520', '129133510', '129086852', '129071653', '129057728', '129022053', '129008128', '128971599', '128967372', '128948017', '128903774', '128874153', '128860228', '128824553', '128810628', '128774953', '128761028', '128725353', '128711428', '128654252', '128639053', '128625128', '128556188', '128499788', '128467220', '128459210', '128424620', '128416610', '128380443', '128358017', '128311517', '128230888', '128196743', '128174317', '128121852', '128119769', '128110915', '128093539', '128064816', '128045417', '127998917', '127940543', '127906243', '127886074', '127864777', '127756814', '127756813', '127732648', '127698517', '127658885', '127635485', '127607474', '127585585', '127515814', '127515813', '127489637', '127461817', '127403443', '127383274', '127353653', '127339728', '127307174', '127278417', '127231917', '127185417', '127145785', '127115517', '127074399', '127071762', '127022417', '126975917', '126929417', '126882917', '126814052', '126799717', '126741343', '126707043', '126672743', '126650317', '126581452', '126567117', '126509967', '126486967', '126440488', '126406343', '126383053', '126369128', '126336574', '126307817', '126248748', '126216874', '126158017', '126098926', '126076353', '126062428', '125993488', '125971217', '125926974', '125886343', '125829788', '125794948', '125763074', '125723674', '125672552', '125624088', '125579452', '125530988', '125508717', '125447637', '125422074', '125370952', '125334252', '125319917', '125263699', '125253673', '125204653', '125190728', '125121788', '125088867', '125042388', '124985988', '124929588', '124896667', '124873667', '124850667', '124840574', '124811817', '124742952', '124727753', '124713828', '124679017', '124631653', '124617728', '124548788', '124514643', '124486252', '124484169', '124475315', '124460117', '124401026', '124356952', '124344173', '124296017', '124237643', '124192852', '124178517', '124120143', '124097717', '124039343', '123994552', '123982474', '123952853', '123938928', '123904117', '123823488', '123778852', '123749937', '123724374', '123681037', '123652353', '123638428', '123591743', '123568453', '123554528', '123518853', '123504928', '123430614', '123430613', '123407143', '123362352', '123335448', '123267188', '123233043', '123194517', '123108514', '123108513', '123095902', '123073153', '123059228', '122990288', '122956143', '122931539', '122902816', '122849288', '122792888', '122758743', '122713085', '122672520', '122664510', '122627648', '122579491', '122556243', '122523167', '122501099', '122489517', '122430448', '122396317', '122327452', '122318499', '122315862', '122253948', '122185688', '122129288', '122072888', '122028252', '122013917', '121956767', '121933767', '121899052', '121884717', '121823637', '121783248', '121748253', '121734328', '121665388', '121643117', '121596617', '121511665', '121475043', '121452617', '121408374', '121379617', '121335374', '121308874', '121245988', '121223717', '121143088', '121108248', '121039988', '121005148', '120956437', '120918320', '120910310', '120863652', '120815188', '120781043', '120747967', '120735617', '120689117', '120636652', '120634569', '120625715', '120604552', '120602469', '120593615', '120544288', '120522017', '120441388', '120425099', '120330488', '120281022', '120223888', '120201617', '120155117', '120074488', '120039648', '120005517', '119958153', '119944228', '119875288', '119818888', '119762488', '119700714', '119700713', '119678820', '119670810', '119645653', '119631728', '119582337', '119539937', '119511253', '119497328', '119462517', '119405720', '119397710', '119367452', '119365369', '119356515', '119348185', '119316615', '119267288', '119235299', '119217752', '119215669', '119206815', '119185652', '119183569', '119174715', '119159517', '119115274', '119086517', '119028143', '118999752', '118997669', '118988815', '118962967', '118928252', '118891552', '118865343', '118832620', '118824610', '118800317', '118753817', '118673188', '118638348', '118581852', '118567517', '118521017', '118474517', '118436843', '118354614', '118354613', '118328437', '118278252', '118253620', '118245610', '118220453', '118206528', '118149352', '118137274', '118077553', '118063628', '118027953', '118014028', '117956852', '117940339', '117911616', '117858088', '117801688', '117745288', '117717052', '117714969', '117706115', '117679043', '117622488', '117598499', '117594272', '117574917', '117533107', '117500737', '117438788', '117382388', '117360117', '117291252', '117254552', '117170617', '117052902', '117030002', '116973988', '116950853', '116936928', '116902117', '116853439', '116824716', '116806873', '116746148', '116712017', '116665517', '116619017', '116574073', '116528174', '116500973', '116418688', '116381837', '116339437', '116309899', '116305672', '116273748', '116227743', '116204453', '116190528', '116133352', '116119785', '116045952', '116006991', '115961488', '115926648', '115881867', '115847152', '115832817', '115763952', '115756485', '115725353', '115711428', '115642488', '115608343', '115585917', '115517052', '115468588', '115412188', '115355788', '115338899', '115336262', '115292299', '115289662', '115206188', '115178584', '115178583', '115146117', '115099617', '115053117', '114994743', '114938188', '114893552', '114856852', '114830643', '114785852', '114760867', '114714388', '114680243', '114647167', '114600688', '114544288', '114487888', '114431488', '114386852', '114350152', '114342685', '114312417', '114265917', '114185288', '114157052', '114154969', '114146115', '114108552', '114071852', '114035152', '114027685', '113997417', '113916788', '113872071', '113857817', '113799443', '113783885', '113731171', '113705043', '113588288', '113543571', '113495188', '113438788', '113382388', '113337671', '113312767', '113300417', '113247952', '113245869', '113237015', '113199371', '113174467', '113162117', '113081488', '113047343', '113024917', '112978417', '112909471', '112872852', '112846643', '112790088', '112733688', '112677288', '112652785', '112622517', '112517839', '112517838', '112497776', '112474189', '112448790', '112387088', '112342452', '112328117', '112281617', '112235117', '112176743', '112154317', '112073688', '112039543', '112017117', '111958743', '111908343', '111863552', '111826852', '111812453', '111798528', '111753067', '111740717', '111660088', '111640074', '111577188', '111543043', '111486488', '111452343', '111432174', '111410285', '111379953', '111366028', '111325252', '111323169', '111314315', '111293152', '111291069', '111282215', '111261052', '111258969', '111250115', '111234917', '111154288', '111097888', '111053252', '111027043', '111004617', '110958117', '110911617', '110842752', '110806052', '110769352', '110723552', '110669714', '110669713', '110623988', '110567588', '110522952', '110496743', '110459737', '110425952', '110423869', '110415015', '110393852', '110391769', '110382915', '110361752', '110359669', '110350815', '110329652', '110327569', '110318715', '110269388', '110212988', '110178843', '110145767', '110094952', '110068743', '110012188', '109975337', '109947517', '109901017', '109854517', '109773888', '109739743', '109705443', '109613217', '109544352', '109530017', '109395888', '109379599', '109296752', '109260052', '109251099', '109248462', '109188467', '109153752', '109127543', '109105117', '109036252', '108987788', '108965517', '108879514', '108879513', '108845552', '108791714', '108791713', '108768243', '108733943', '108689152', '108662943', '108601014', '108601013', '108577543', '108543243', '108508943', '108464152', '108415688', '108352988', '108320067', '108309974', '108247088', '108212553', '108198628', '108129688', '108085052', '108064752', '108062669', '108053815', '108032652', '108030569', '108021715', '107972388', '107950117', '107903617', '107834752', '107820417', '107773917', '107721452', '107719369', '107710515', '107689352', '107687269', '107678415', '107629088', '107572688', '107516288', '107494017', '107454385', '107389988', '107333588', '107299443', '107265143', '107242717', '107173852', '107153552', '107151469', '107142615', '107121452', '107119369', '107110515', '107095317', '107048817', '106968188', '106945917', '106865288', '106837684', '106837683', '106795752', '106759052', '106734067', '106709843', '106694285', '106629888', '106585252', '106570917', '106513767', '106467288', '106422652', '106374188', '106340043', '106317617', '106236988', '106202126', '106146288', '106112143', '106055588', '106033317', '105991507', '105939588', '105905443', '105889885', '105825488', '105769088', '105734943', '105700643', '105685085', '105640791', '105615391', '105598052', '105595969', '105587115', '105571917', '105514767', '105480052', '105455067', '105408588', '105386317', '105327943', '105305517', '105236652', '105188188', '105131788', '105087152', '105050452', '105023548', '104955288', '104898888', '104874899', '104870672', '104851317', '104804753', '104790828', '104755953', '104742028', '104684852', '104670453', '104656528', '104619539', '104590816', '104537288', '104515017', '104468517', '104422017', '104341388', '104284988', '104228588', '104183952', '104169617', '104073014', '104073013', '104027288', '103999052', '103996969', '103988115', '103972917', '103904052', '103889717', '103843153', '103829228', '103779837', '103752017', '103712385', '103688985', '103646843', '103590288', '103533888', '103499743', '103484185', '103419788', '103363388', '103341117', '103282048', '103213788', '103191517', '103122652', '103085952', '103071553', '103057628', '103022817', '102953952', '102917252', '102880552', '102854343', '102838785', '102774388', '102717988', '102661588', '102616952', '102602617', '102533671', '102485288', '102451143', '102428717', '102382217', '102335717', '102289217', '102242717', '102162088', '102105688', '102070826', '102037243', '102002943', '101978727', '101969390', '101914643', '101892217', '101833843', '101790443', '101745652', '101697188', '101640788', '101584388', '101527988', '101503539', '101474816', '101421288', '101364888', '101320252', '101305917', '101225288', '101203017', '101122388', '101100117', '101047652', '101045569', '101036715', '101015552', '101013469', '101004615', '100967052', '100946752', '100944669', '100935815', '100889143', '100866717', '100786088', '100753167', '100730167', '100683688', '100627288', '100570888', '100536743', '100501726', '100469367', '100422888', '100389967', '100377617', '100296988', '100240588', '100218317', '100171817', '100091188', '100046552', '99998088', '99982685', '99959285', '99929017', '99883919', '99860617', '99814117', '99733488', '99705252', '99703169', '99694315', '99656752', '99561488', '99458367', '99388488', '99236867', '99190388', '99133988', '99077588', '99032952', '99018617', '98949752', '98935417', '98831288', '98798367', '98774143', '98717588', '98661188', '98638917', '98570052', '98521588', '98476952', '98462617', '98405467', '98393053', '98379128', '98344253', '98330328', '98293339', '98264616', '98245217', '98164588', '98108188', '98085917', '98039417', '97958788', '97943385', '97913117', '97853848', '97804652', '97765417', '97684788', '97628388', '97571988', '97490688', '97421152', '97372688', '97339767', '97293288', '97271017', '97190388', '97140848', '97101285', '97065052', '97062969', '97054115', '97004788', '96960152', '96933943', '96905552', '96903469', '96894615', '96867543', '96822752', '96808417', '96761917', '96715417', '96650517', '96579943', '96523388', '96466988', '96451585', '96387188', '96330788', '96315385', '96250988', '96194588', '96138188', '96081788', '96029917'], 'TranslationSet': [], 'TranslationStack': [{'Term': 'MYO18A[All Fields]', 'Field': 'All Fields', 'Count': '3510', 'Explode': 'N'}, 'GROUP'], 'QueryTranslation': 'MYO18A[All Fields]'}
