{'Count': '3743', 'RetMax': '999', 'RetStart': '0', 'IdList': ['2283768868', '600971684', '600971682', '600971660', '600971637', '22094119', '2280960722', '2280960476', '1775802029', '1375381505', '357580460', '156630890', '143811432', '125987842', '92090617', '81174936', '81174934', '74746874', '51704244', '50400651', '33301318', '20141203', '464483', '127357', '2277618761', '2277618759', '2277618757', '2277618755', '2272748259', '2272748257', '2272748255', '2272748248', '2272748241', '2272748238', '2272748235', '2272748229', '2272748225', '2272748221', '2272748217', '2272748211', '2272748209', '2272748207', '2272748203', '2272748201', '2272748190', '2272748188', '2272748186', '2272748182', '2272748178', '2272748166', '2272748164', '2272748160', '2272748152', '2266279969', '2263223206', '2263223204', '2262760691', '2262760681', '2262760675', '2262760671', '2262760668', '2262760665', '2262760661', '2262760658', '2262760655', '2262760649', '2262760646', '2262760643', '2262760640', '2262760637', '2262760634', '2262760631', '2262760627', '2262760624', '2262760621', '984129309', '984129307', '984129305', '984129303', '984129295', '2071948495', '2071948494', '2071948485', '2071948484', '2071438176', '2071438175', '2071195807', '2071140540', '2071140538', '2153125563', '2152827351', '2152827350', '2247569348', '21361716', '1093953582', '1093953577', '1093953567', '1093953565', '42794779', '28416946', '2240578452', '2240578450', '2240578448', '2240578446', '2240578444', '2240578442', '2240578440', '2240488503', '2240488501', '2240488499', '2240488497', '2240488495', '2240488493', '2240488491', '2240488489', '2240488487', '2240488485', '2240488483', '2240488481', '2240488479', '2240488477', '2240488475', '2240488473', '2240488471', '2240488469', '2240488467', '2240488465', '2240488463', '2240488461', '2240488459', '2240488457', '2240057975', '2240057971', '2240057966', '2240057962', '2240057957', '2240057953', '2240057947', '2240057945', '2240057941', '2240057935', '2240057931', '2240057929', '2240057927', '2240057923', '2240057919', '2118208537', '2118208533', '2118208531', '1483800911', '1483800905', '2235968826', '2235968824', '2235968822', '2235968820', '2235968818', '2235968816', '2235968814', '2235968812', '2235968810', '2235968808', '2235968806', '2235968804', '2235968802', '2235968800', '2235968798', '2223288020', '2223288019', '2223284548', '2217311892', '2217311890', '2217311888', '2217311886', '2217311884', '2217311882', '2217311880', '2217311878', '2217311876', '2217311874', '2217311872', '2217311870', '2217311868', '2217311866', '2217311864', '2217311862', '2217311860', '2217311858', '2217311856', '2217311854', '2217311852', '2217311850', '2217311848', '2217311846', '2217311844', '2217311842', '2217311840', '2217311838', '2217311836', '2217311834', '2217311832', '2217311830', '2217311828', '2217311826', '2217311824', '2217311822', '2217311820', '2217311818', '2217311816', '2217311814', '2217311812', '2217311810', '2217311808', '2217311806', '2216673124', '2216653303', '2187296528', '2187296525', '2187296523', '2187296521', '2187296518', '2187296516', '2187296513', '2187296511', '2187296509', '2187296507', '2187296504', '2187296501', '2187296499', '2187296496', '2187296494', '2187296492', '2181303837', '2181303835', '2181303833', '2181303831', '2181303829', '2181303827', '2181303825', '2181303823', '2181303821', '2181303819', '2181303817', '2181303815', '2181303813', '2181303811', '2181303809', '2181303807', '2181303805', '2181303803', '2181303801', '2181303799', '2176711431', '2176711429', '2176711427', '2176711425', '2176711423', '2176711421', '2176711419', '2176711417', '2176711415', '2176711413', '2176711411', '2201760411', '2201760409', '2201760407', '2201760405', '2201760402', '2201760400', '2201760398', '2201760396', '2201760394', '2201760392', '2201760390', '2201633774', '2024466120', '2024466104', '2024466102', '2187410663', '2187410662', '2187410661', '2187410660', '2187410659', '2187410658', '2187410657', '2187410656', '2187410655', '2187410654', '2187410653', '2187410652', '2187410651', '2187410650', '2187410649', '2178046756', '2178046754', '2178046752', '2178046750', '2177227674', '2177227672', '2177227670', '2177227668', '2177227666', '2177227664', '2177227662', '2177227660', '2177227658', '2177227656', '2177227654', '2177227652', '2177227650', '2177227648', '2177227646', '2177227644', '2177227642', '2177227640', '2177227638', '2177227636', '1935598146', '76257394', '2169334642', '2169334639', '2169334637', '2169334635', '2169334633', '2169334631', '2169334629', '2169334627', '2169334625', '2169334623', '2169334621', '2169334619', '2169334617', '1912740243', '1912740219', '2168852156', '2168852154', '2168852152', '2168852150', '2168852148', '2168852146', '2168852144', '2168852142', '2168852140', '2168852138', '2166918958', '2166918956', '2166918954', '2166918952', '2166918950', '2166918948', '2166918946', '2166918944', '2166918942', '2166918940', '2166918938', '2166918936', '2166918934', '2166918932', '2166918930', '2166918928', '2166918926', '2166918924', '2166918922', '2166918920', '2166918918', '2166918916', '2166918914', '2166918912', '2166918910', '2166918908', '2166918906', '2166918904', '2166918902', '2166918900', '2166918898', '2166918896', '2165524612', '2165412011', '2161852267', '2161852265', '2161852263', '2161852261', '2161852259', '2161852257', '2161852255', '2161852253', '2161852251', '2161852249', '2161852247', '2161852245', '2161852243', '2161852241', '2161852239', '2161852237', '2161852235', '2160841206', '1746297114', '1746297111', '507663983', '507663979', '1123965528', '1123965526', '1123965524', '1123965522', '1123965520', '1123965518', '1123965516', '1123965514', '1123965512', '1123965510', '1123965508', '1123965506', '1123965504', '1123965502', '1123965500', '1123965498', '1123965496', '1123965494', '1123965492', '2156143213', '2156143211', '2156143209', '2156143207', '2156143205', '2156143203', '2156143201', '2156143198', '2156143196', '2156143194', '2156143192', '1374983868', '2129501720', '2129501718', '2129501716', '2129501714', '2129501712', '2129501710', '2129501708', '2129501706', '2129501704', '2129501702', '2129501700', '2129501698', '2129501696', '2129501694', '2129501692', '2129501690', '2129501688', '2129501686', '2129501684', '2129501682', '2148392967', '2148392965', '2148392963', '2148392961', '2148392959', '2148392957', '2148392955', '2148392953', '2148392951', '2148392949', '2148392947', '2148392945', '2148392943', '2148392941', '2148392939', '2148392937', '2148392935', '2148392933', '2147869262', '2147869259', '2147869256', '2147869254', '2131054286', '2131054284', '2131054282', '2131054280', '2131054278', '2131054276', '2131054274', '2131054272', '2131054270', '2131054268', '2131054266', '2131054264', '2131054262', '2131054260', '2131054258', '2131054256', '2131054254', '2131054252', '2131054250', '2131054248', '2131054246', '2131054244', '2131054242', '2130964677', '2130964673', '2130964670', '2130964667', '2130964659', '2130964656', '2130964651', '2130964639', '2130964631', '2130964627', '2130964624', '2130964621', '2130964618', '2130964615', '2130964612', '2130964609', '2130964606', '2128079620', '1304947455', '1304947453', '1304947451', '1304947449', '1212220148', '1212220146', '1212220144', '1212220142', '1212220140', '859775613', '511845182', '507561994', '507561992', '2124432925', '2119510264', '2118973700', '2118973698', '2118973696', '2118973694', '2118973692', '2118973690', '2118973688', '2118208539', '2118208535', '2118208527', '2117988726', '2117988724', '2117988722', '2117988720', '2117988718', '2117988716', '221307531', '2113565268', '2113565265', '2113565263', '2113565261', '2113565258', '2113565255', '2113565252', '2113565248', '2113565243', '2113565240', '2113565237', '2113565234', '2113565231', '2113565228', '2113565225', '2113565222', '2113565219', '2113565216', '2113565213', '2113565210', '2113565207', '2112853775', '2112853772', '2112853769', '2112853767', '2112853764', '2112853761', '2112853759', '2112853756', '2112853749', '2112853746', '2112853744', '2112853741', '2112853739', '2102717965', '2102717962', '2102717959', '2102717956', '2102717953', '2102717950', '2102717947', '2102717944', '2102717941', '2102717938', '2102717935', '2102717933', '2102717930', '2102717927', '2102717925', '2102717922', '2102717919', '2102717916', '2102717914', '2102717911', '2102717908', '2102083769', '2102083767', '2102083765', '2102083763', '2102083761', '2102083759', '2102083757', '2102083754', '2102083747', '2102083743', '2102083739', '2102083736', '2102083733', '2102083723', '2102083720', '2102083717', '2092209468', '2092209465', '2092209461', '2092209457', '2092209453', '2092209449', '2092209446', '2092209444', '2092209441', '2092209438', '2092209435', '2092209432', '2092209421', '2092209418', '2092209414', '2092209411', '2092209407', '2092209403', '2092209399', '2092209396', '2092209392', '2092209389', '2092209385', '2092209382', '2092209378', '2092209374', '2092209370', '2092165196', '2092165192', '2092165189', '2092165185', '2092165182', '2092165179', '2092165176', '2092165160', '2092165157', '2092165150', '2092165146', '2092165143', '2092165141', '2092165138', '2092165135', '2092165132', '2092165127', '2092165124', '2092081234', '2092081232', '2092081230', '2092081228', '2092081226', '2092081224', '2092081222', '2092081220', '2092081218', '2092081216', '2092081214', '2092081212', '2092081210', '2092081208', '2092081206', '2092081204', '2092081202', '2092081200', '2092081198', '2092081196', '2092081194', '1950402153', '1950402141', '1950402137', '1950402129', '2090075587', '2090075585', '2090075583', '2090075581', '2090075579', '2090075577', '2090075575', '2090075573', '2090075571', '2090075569', '2090075567', '2090075565', '2090075563', '2090075561', '2090075559', '2090075557', '2086928820', '2086928819', '2086928008', '2086928007', '2086928006', '2084434782', '2084432692', '2080441637', '2080441633', '2080441630', '2080441626', '2080441622', '2080441619', '2080441616', '2080441613', '2079141300', '2079141298', '2079141296', '2079141294', '2079141292', '2079141290', '2079141288', '2079141286', '2079141284', '2077773069', '2077773055', '2077773040', '2077773025', '2077773021', '2077773005', '2077773002', '2077772987', '2077772972', '2077772970', '2077772955', '2077772953', '2077772937', '2077772934', '2077772930', '2077772915', '2077772913', '2077772898', '2077772895', '2077638662', '2077638660', '2077638658', '2077638656', '2077638654', '2077638652', '2077638650', '2077638648', '2077638646', '2077638644', '2077638642', '2077638640', '2077638638', '2077638636', '2077638634', '2077638632', '2077638630', '2077638628', '2077638626', '2077638624', '2077638622', '2077638620', '2077638618', '2077638616', '2077638614', '2077638612', '2077638610', '2077638608', '2077638606', '2077638604', '2077638602', '2077638600', '2077638598', '2077638596', '2077638594', '2077593150', '2077593148', '2077593146', '2077125803', '2077125801', '2077125799', '2077125797', '2077125795', '2076565573', '2076529266', '2075853452', '2075853356', '2075853355', '2075853354', '2074164814', '1823382366', '1823382364', '1823382362', '1823382360', '1823382358', '1823382356', '1823382354', '1823382352', '1823382350', '1823382348', '2072329511', '2072329509', '2072329507', '2072329505', '2072329503', '2072329501', '2072329499', '2072329497', '2072329495', '2072329493', '2070606428', '2069507157', '2069507155', '2069507153', '2069507151', '2069507149', '2069507147', '2069507145', '2069507143', '2069507141', '2069507139', '2069507137', '2067137551', '2067137440', '2062926910', '2062926908', '2062926905', '2062926900', '2062926897', '2062926894', '2062926891', '2062926889', '2062763981', '2062763977', '2062763975', '2062763973', '2062763971', '2062763969', '2062763967', '2062763965', '2062763961', '2062763958', '2062763956', '2062763954', '2062763948', '2062763935', '2062763930', '2062763923', '2062763909', '2062763896', '2062763889', '2062763883', '2062763874', '2062763871', '2062763866', '2062763848', '2062763836', '2062763815', '2062763807', '2062763790', '1008752716', '589929388', '2059546870', '2059538724', '2059538716', '2059509106', '2059508693', '2059471817', '2059450896', '2059450895', '2059444142', '2059433705', '2059433704', '2052133803', '1949672343', '1949672341', '1949672339', '1949672337', '1949672335', '1949672333', '1949672331', '1949672329', '1949672327', '1949672325', '1949672323', '1949672321', '1949672319', '1949672317', '1949672315', '1949672313', '1949672311', '1949672309', '1949672307', '1949672305', '1949672303', '1926974727', '1926974725', '1926974723', '1926974721', '1926974719', '1926974717', '1926974715', '1926974713', '1926974711', '1926974709', '1926974707', '1926974705', '1926974703', '1926974701', '1926974699', '1926974697', '1926974695', '1926974693', '2052010688', '2052010686', '2052010684', '2052010682', '2052010678', '2052010676', '2052010674', '2052010672', '2052010670', '2052010668', '2052010666', '2052010662', '2052010658', '2052010655', '2052010651', '2052010647', '2052010641', '2052010637', '2052010633', '2052010629', '2052010625', '2052010622', '2052010618', '2052010614', '2052010611', '2052010608', '2052010604', '2052010600', '2052010597', '2052010593', '2052010589', '2052010585', '2052010581', '2052010577', '2052010573', '2043835021', '2043835019', '2043835017', '2043835015', '2043835013', '2043835011', '2043835009', '2043835007', '2043835005', '2043835003', '2043835001', '2043834999', '2043834997', '2043834995', '2044126447', '2044126445', '2044126443', '2044126441', '2044126439', '2044126437', '2044126435', '2044126433', '2044126431', '2044126429', '2044126427', '2044126425', '2044126423', '2044126421', '2044126419', '2044126417', '2044126415', '2044126413', '2044126411', '2044126409', '2044126407', '2044126405', '2044126403', '2044126401', '2044126399', '2044126397', '2038231705', '2038231700', '2038231696', '2038231694', '2038231692', '2038231690'], 'TranslationSet': [], 'TranslationStack': [{'Term': 'MYO18A[All Fields]', 'Field': 'All Fields', 'Count': '3743', 'Explode': 'N'}, 'GROUP'], 'QueryTranslation': 'MYO18A[All Fields]'}
