{'Count': '4264', 'RetMax': '999', 'RetStart': '0', 'IdList': ['2283785239', '2283768864', '600971683', '600971663', '600971659', '2282102348', '2282102345', '2280970803', '2280970802', '2280960605', '2280960359', '2277618760', '2277618758', '2277618756', '2277618754', '2275423367', '2272748258', '2272748256', '2272748254', '2272748247', '2272748240', '2272748237', '2272748234', '2272748228', '2272748224', '2272748220', '2272748216', '2272748210', '2272748208', '2272748206', '2272748202', '2272748200', '2272748189', '2272748187', '2272748185', '2272748181', '2272748177', '2272748165', '2272748163', '2272748159', '2272748151', '2254133759', '2266279968', '2260013344', '2157234696', '2263223205', '2263223203', '2262760690', '2262760688', '2262760685', '2262760683', '2262760680', '2262760677', '2262760674', '2262760670', '2262760667', '2262760664', '2262760660', '2262760657', '2262760654', '2262760651', '2262760648', '2262760645', '2262760642', '2262760639', '2262760636', '2262760633', '2262760630', '2262760626', '2262760623', '2262760620', '2260395744', '2247753773', '2072291229', '2071948440', '2071529743', '2071438140', '2071309899', '2071195803', '2071183094', '2071140529', '2153194058', '2153125561', '2152987567', '2152827349', '2247569347', '2231916667', '1519313018', '1677531877', '1677530139', '1677500397', '1677499969', '1677499717', '1677498378', '2240578451', '2240578449', '2240578447', '2240578445', '2240578443', '2240578441', '2240578439', '2240488502', '2240488500', '2240488498', '2240488496', '2240488494', '2240488492', '2240488490', '2240488488', '2240488486', '2240488484', '2240488482', '2240488480', '2240488478', '2240488476', '2240488474', '2240488472', '2240488470', '2240488468', '2240488466', '2240488464', '2240488462', '2240488460', '2240488458', '2240488456', '2238815986', '2237272622', '2240057974', '2240057970', '2240057969', '2240057965', '2240057961', '2240057960', '2240057956', '2240057952', '2240057949', '2240057946', '2240057944', '2240057940', '2240057934', '2240057930', '2240057928', '2240057926', '2240057922', '2240057918', '2240057915', '2240057914', '2230793339', '2230762304', '2235968825', '2235968823', '2235968821', '2235968819', '2235968817', '2235968815', '2235968813', '2235968811', '2235968809', '2235968807', '2235968805', '2235968803', '2235968801', '2235968799', '2235968797', '2225943955', '2225943949', '600971681', '600971636', '2223287941', '2223284145', '2194972897', '568815581', '2217311891', '2217311889', '2217311887', '2217311885', '2217311883', '2217311881', '2217311879', '2217311877', '2217311875', '2217311873', '2217311871', '2217311869', '2217311867', '2217311865', '2217311863', '2217311861', '2217311859', '2217311857', '2217311855', '2217311853', '2217311851', '2217311849', '2217311847', '2217311845', '2217311843', '2217311841', '2217311839', '2217311837', '2217311835', '2217311833', '2217311831', '2217311829', '2217311827', '2217311825', '2217311823', '2217311821', '2217311819', '2217311817', '2217311815', '2217311813', '2217311811', '2217311809', '2217311807', '2217311805', '2216671080', '2216653010', '2187296527', '2187296524', '2187296522', '2187296520', '2187296517', '2187296515', '2187296512', '2187296510', '2187296508', '2187296506', '2187296503', '2187296500', '2187296498', '2187296495', '2187296493', '2187296491', '2181303836', '2181303834', '2181303832', '2181303830', '2181303828', '2181303826', '2181303824', '2181303822', '2181303820', '2181303818', '2181303816', '2181303814', '2181303812', '2181303810', '2181303808', '2181303806', '2181303804', '2181303802', '2181303800', '2181303798', '2176711430', '2176711428', '2176711426', '2176711424', '2176711422', '2176711420', '2176711418', '2176711416', '2176711414', '2176711412', '2176711410', '1969672628', '2201760410', '2201760408', '2201760406', '2201760404', '2201760403', '2201760401', '2201760399', '2201760397', '2201760395', '2201760393', '2201760391', '2201760389', '2201760388', '2201760387', '2201633773', '1969672334', '2187408513', '2178557829', '2177975533', '2178046755', '2178046753', '2178046751', '2178046749', '2177973617', '2174269203', '2177740892', '2177227673', '2177227671', '2177227669', '2177227667', '2177227665', '2177227663', '2177227661', '2177227659', '2177227657', '2177227655', '2177227653', '2177227651', '2177227649', '2177227647', '2177227645', '2177227643', '2177227641', '2177227639', '2177227637', '2177227635', '2174008705', '2106232768', '1935598145', '76257393', '2165418449', '1098385945', '2169334643', '2169334641', '2169334640', '2169334638', '2169334636', '2169334634', '2169334632', '2169334630', '2169334628', '2169334626', '2169334624', '2169334622', '2169334620', '2169334618', '2169334616', '1910432494', '2168852157', '2168852155', '2168852153', '2168852151', '2168852149', '2168852147', '2168852145', '2168852143', '2168852141', '2168852139', '2168852137', '2131398667', '2166918957', '2166918955', '2166918953', '2166918951', '2166918949', '2166918947', '2166918945', '2166918943', '2166918941', '2166918939', '2166918937', '2166918935', '2166918933', '2166918931', '2166918929', '2166918927', '2166918925', '2166918923', '2166918921', '2166918919', '2166918917', '2166918915', '2166918913', '2166918911', '2166918909', '2166918907', '2166918905', '2166918903', '2166918901', '2166918899', '2166918897', '2166918895', '2161380797', '2165524611', '2165411986', '741189988', '2161852266', '2161852264', '2161852262', '2161852260', '2161852258', '2161852256', '2161852254', '2161852252', '2161852250', '2161852248', '2161852246', '2161852244', '2161852242', '2161852240', '2161852238', '2161852236', '2161852234', '2154879057', '2160841210', '2160841209', '2160841208', '2160841207', '2160841205', '1735333804', '1123965527', '1123965525', '1123965523', '1123965521', '1123965519', '1123965517', '1123965515', '1123965513', '1123965511', '1123965509', '1123965507', '1123965505', '1123965503', '1123965501', '1123965499', '1123965497', '1123965495', '1123965493', '1123965491', '2156143212', '2156143210', '2156143208', '2156143206', '2156143204', '2156143202', '2156143200', '2156143199', '2156143197', '2156143195', '2156143193', '2156143191', '1351669727', '2148392966', '2148392964', '2148392962', '2148392960', '2148392958', '2148392956', '2148392954', '2148392952', '2148392950', '2148392948', '2148392946', '2148392944', '2148392942', '2148392940', '2148392938', '2148392936', '2148392934', '2148392932', '2131675126', '2147869261', '2147869260', '2147869258', '2147869257', '2147869255', '2147869253', '2130473376', '2132453017', '2132004504', '2131967086', '2131913045', '2131054290', '2131054289', '2131054288', '2131054287', '2131054285', '2131054283', '2131054281', '2131054279', '2131054277', '2131054275', '2131054273', '2131054271', '2131054269', '2131054267', '2131054265', '2131054263', '2131054261', '2131054259', '2131054257', '2131054255', '2131054253', '2131054251', '2131054249', '2131054247', '2131054245', '2131054243', '2131054241', '2130964676', '2130964672', '2130964669', '2130964666', '2130964658', '2130964655', '2130964653', '2130964650', '2130964641', '2130964638', '2130964630', '2130964626', '2130964623', '2130964620', '2130964617', '2130964614', '2130964611', '2130964608', '2130964605', '2125839173', '2120507899', '2129501719', '2129501717', '2129501715', '2129501713', '2129501711', '2129501709', '2129501707', '2129501705', '2129501703', '2129501701', '2129501699', '2129501697', '2129501695', '2129501693', '2129501691', '2129501689', '2129501687', '2129501685', '2129501683', '2129501681', '2128079619', '2128079618', '2128079616', '2128079615', '2128079613', '2128079611', '2127985115', '2125235960', '2124432924', '2118838419', '2119510263', '2113378320', '2089825900', '2118973699', '2118973697', '2118973695', '2118973693', '2118973691', '2118973689', '2118973687', '2118208538', '2118208534', '2118208526', '2117988725', '2117988723', '2117988721', '2117988719', '2117988717', '2117988715', '2112805745', '221307530', '2108443899', '2113565267', '2113565264', '2113565262', '2113565260', '2113565257', '2113565254', '2113565251', '2113565247', '2113565242', '2113565239', '2113565236', '2113565233', '2113565230', '2113565227', '2113565224', '2113565221', '2113565218', '2113565215', '2113565212', '2113565209', '2113565206', '2108399155', '2112853774', '2112853771', '2112853768', '2112853766', '2112853763', '2112853760', '2112853758', '2112853755', '2112853748', '2112853745', '2112853743', '2112853740', '2112853738', '2112712776', '2112705454', '2102717964', '2102717961', '2102717958', '2102717955', '2102717952', '2102717949', '2102717946', '2102717943', '2102717940', '2102717937', '2102717934', '2102717932', '2102717929', '2102717926', '2102717924', '2102717921', '2102717918', '2102717915', '2102717913', '2102717910', '2102717907', '2098486358', '2096422277', '2102083768', '2102083766', '2102083764', '2102083762', '2102083760', '2102083758', '2102083756', '2102083753', '2102083746', '2102083742', '2102083738', '2102083735', '2102083732', '2102083722', '2102083719', '2102083716', '2089103526', '2092209467', '2092209464', '2092209460', '2092209456', '2092209452', '2092209448', '2092209445', '2092209443', '2092209440', '2092209437', '2092209434', '2092209431', '2092209420', '2092209417', '2092209413', '2092209410', '2092209406', '2092209402', '2092209398', '2092209395', '2092209391', '2092209388', '2092209384', '2092209381', '2092209377', '2092209373', '2092209369', '2092165199', '2092165195', '2092165191', '2092165188', '2092165184', '2092165181', '2092165178', '2092165175', '2092165162', '2092165159', '2092165156', '2092165153', '2092165149', '2092165145', '2092165142', '2092165140', '2092165137', '2092165134', '2092165131', '2092165129', '2092165126', '2092165123', '2092081233', '2092081231', '2092081229', '2092081227', '2092081225', '2092081223', '2092081221', '2092081219', '2092081217', '2092081215', '2092081213', '2092081211', '2092081209', '2092081207', '2092081205', '2092081203', '2092081201', '2092081199', '2092081197', '2092081195', '2092081193', '2087547891', '1949099797', '2090075586', '2090075584', '2090075582', '2090075580', '2090075578', '2090075576', '2090075574', '2090075572', '2090075570', '2090075568', '2090075566', '2090075564', '2090075562', '2090075560', '2090075558', '2090075556', '2088013364', '2086928818', '2086927922', '2085697448', '2085697006', '2084455553', '2084434230', '2084432532', '2080441636', '2080441632', '2080441629', '2080441625', '2080441621', '2080441618', '2080441615', '2080441612', '2076504796', '2079141299', '2079141297', '2079141295', '2079141293', '2079141291', '2079141289', '2079141287', '2079141285', '2079141283', '2076299152', '2076173837', '2077773068', '2077773054', '2077773039', '2077773024', '2077773020', '2077773004', '2077773001', '2077772986', '2077772971', '2077772969', '2077772954', '2077772952', '2077772936', '2077772933', '2077772929', '2077772914', '2077772912', '2077772897', '2077772894', '2077638661', '2077638659', '2077638657', '2077638655', '2077638653', '2077638651', '2077638649', '2077638647', '2077638645', '2077638643', '2077638641', '2077638639', '2077638637', '2077638635', '2077638633', '2077638631', '2077638629', '2077638627', '2077638625', '2077638623', '2077638621', '2077638619', '2077638617', '2077638615', '2077638613', '2077638611', '2077638609', '2077638607', '2077638605', '2077638603', '2077638601', '2077638599', '2077638597', '2077638595', '2077638593', '2077593149', '2077593147', '2077593145', '2077483946', '2077483945', '2077481540', '2076497675', '2073263991', '2077125802', '2077125800', '2077125798', '2077125796', '2077125794', '2076565548', '2076532750', '2076528979', '2076509222', '2076071522', '2075851886', '2074164813', '2073992606', '2073992605', '2073992604', '1823382363', '1823382359', '1823382355', '1823382353', '1823382351', '1823382349', '1823382347', '1821955488', '632402055', '2072595790', '2072329510', '2072329508', '2072329506', '2072329504', '2072329502', '2072329500', '2072329498', '2072329496', '2072329494', '2072329492', '2069947487', '2070605954', '2069507156', '2069507154', '2069507152', '2069507150', '2069507148', '2069507146', '2069507144', '2069507142', '2069507140', '2069507138', '2069507136', '2066269320', '1895837378', '1895837004', '1895836836', '1895836480', '1895836415', '2062926909', '2062926907', '2062926906', '2062926904', '2062926903', '2062926899', '2062926896', '2062926893', '2062926890', '2062926888', '2062763980', '2062763976', '2062763974', '2062763972', '2062763970', '2062763968', '2062763966', '2062763964', '2062763960', '2062763957', '2062763955', '2062763953', '2062763947', '2062763934', '2062763929', '2062763922', '2062763908', '2062763895', '2062763888', '2062763882', '2062763873', '2062763870', '2062763865', '2062763847', '2062763835', '2062763814', '2062763806', '2062763789', '2055116842', '2053455811', '2059546863', '2059538715', '2059509105', '2059508692', '2059471816', '2059450876', '2059444141', '2059433601', '2052705439', '2052705438', '2052705436', '2052705435', '2052705434', '2052705433', '2052705432', '2052705431', '2052705430', '2052705429', '2052705428', '2052705427', '2052705426', '2052705425', '2052705424', '2052705423', '2052705422', '2052705421', '2052705420', '2052146812', '2052133783', '1949672342', '1949672310', '1949241330', '1926974726', '1926974724', '1926974722', '1926974720', '1926974718', '1926974716', '1926974714', '1926974712', '1926974710', '1926974708', '1926974706', '1926974704', '1926974702', '1926974700', '1926974698', '1926974696', '1926974694', '1926974692', '1923931125', '2052010687', '2052010685', '2052010683', '2052010681', '2052010677', '2052010675', '2052010673', '2052010671', '2052010669', '2052010667', '2052010665', '2052010661', '2052010657', '2052010654', '2052010650', '2052010646', '2052010640', '2052010636', '2052010632', '2052010628', '2052010624', '2052010621', '2052010617', '2052010613', '2052010610', '2052010607', '2052010603', '2052010599', '2052010596', '2052010592', '2052010588'], 'TranslationSet': [], 'TranslationStack': [{'Term': 'MYO18A[All Fields]', 'Field': 'All Fields', 'Count': '4264', 'Explode': 'N'}, 'GROUP'], 'QueryTranslation': 'MYO18A[All Fields]'}
